freq baseline nonperiodic diff
6.000000000 0.201098620042 0.168846863007 0.0322517570343
6.018000000 0.205420854699 0.172676921739 0.03274393296
6.036000000 0.2098258728 0.176588517709 0.0332373550905
6.054000000 0.214313985739 0.180582472699 0.0337315130399
6.072000000 0.218885380603 0.184659510534 0.0342258700697
6.090000000 0.223540109543 0.188820245344 0.0347198641985
6.108000000 0.22827807877 0.193065169085 0.0352129096846
6.126000000 0.233099037235 0.197394638314 0.035704398921
6.144000000 0.238002565025 0.201808860245 0.03619370478
6.162000000 0.242988061546 0.206307878105 0.036680183441
6.180000000 0.248054733559 0.21089155582 0.0371631777385
6.198000000 0.253201583162 0.215559562104 0.0376420210576
6.216000000 0.258427395803 0.220311353999 0.0381160418048
6.234000000 0.263730728438 0.225146159967 0.0385845684705
6.252000000 0.269109897951 0.230062962655 0.0390469352964
6.270000000 0.274562969987 0.235060481441 0.0395024885462
6.288000000 0.28008774832 0.240137154949 0.0399505933704
6.306000000 0.285681764936 0.245291123699 0.0403906412368
6.324000000 0.291342271003 0.250520213116 0.0408220578876
6.342000000 0.297066228899 0.255821917139 0.0412443117601
6.360000000 0.302850305493 0.2611933827 0.0416569227926
6.378000000 0.308690866891 0.266631395379 0.0420594715114
6.396000000 0.314583974825 0.272132366551 0.0424516082745
6.414000000 0.320525384914 0.277692322391 0.0428330625221
6.432000000 0.326510546967 0.283306895107 0.0432036518603
6.450000000 0.332534607557 0.288971316773 0.0435632907841
6.468000000 0.338592415013 0.294680416193 0.0439119988194
6.486000000 0.344678527016 0.300428619165 0.0442499078511
6.504000000 0.350787220941 0.306209952553 0.0445772683876
6.522000000 0.356912507046 0.312018052545 0.0448944545015
6.540000000 0.363048144617 0.317846177427 0.0452019671903
6.558000000 0.369187661086 0.323687225185 0.0455004359005
6.576000000 0.375324374149 0.329533756172 0.0457906179776
6.594000000 0.381451416834 0.335378021005 0.0460733958296
6.612000000 0.38756176541 0.341211993785 0.0463497716248
6.630000000 0.393648270016 0.347027410622 0.0466208593947
6.648000000 0.399703687788 0.352815813322 0.0468878744658
6.666000000 0.405720718229 0.358568598015 0.0471521202134
6.684000000 0.411692040529 0.364277068327 0.0474149722022
6.702000000 0.417610352453 0.369932492593 0.0476778598595
6.720000000 0.4234684104 0.37552616449 0.0479422459099
6.738000000 0.429259070195 0.381049466312 0.0482096038827
6.756000000 0.434975328122 0.38649393404 0.0484813940821
6.774000000 0.440610361708 0.391851323225 0.0487590384838
6.792000000 0.446157569736 0.397113674654 0.0490438950818
6.810000000 0.451610610975 0.40227337872 0.049337232255
6.828000000 0.456963441124 0.407323237371 0.0496402037536
6.846000000 0.462210347478 0.412256522565 0.0499538249133
6.864000000 0.467345980858 0.417067030164 0.0502789506938
6.882000000 0.472365384407 0.421749128303 0.0506162561035
6.900000000 0.477264018879 0.426297799361 0.0509662195172
6.918000000 0.482037784128 0.430708674808 0.0513291093194
6.936000000 0.48668303656 0.434978062348 0.0517049742126
6.954000000 0.491196602391 0.439102964963 0.0520936374281
6.972000000 0.495575786606 0.443081091646 0.0524946949599
6.990000000 0.499818377624 0.446910859796 0.052907517828
7.008000000 0.503922647708 0.450591389451 0.0533312582571
7.026000000 0.507887349252 0.454122489705 0.053764859547
7.044000000 0.511711707126 0.457504637818 0.0542070693079
7.062000000 0.515395407327 0.460738951682 0.054656455645
7.080000000 0.518938582232 0.46382715643 0.0551114258015
7.098000000 0.522341792768 0.466771546051 0.0555702467177
7.116000000 0.525606007886 0.469574940966 0.0560310669201
7.134000000 0.528732581695 0.472240642552 0.0564919391439
7.152000000 0.531723228676 0.474772385596 0.05695084308
7.170000000 0.534579997358 0.477174289695 0.0574057076632
7.188000000 0.537305242855 0.479450810521 0.0578544323342
7.206000000 0.539901598651 0.481606691901 0.0582949067501
7.224000000 0.542371947984 0.483646919524 0.0587250284593
7.242000000 0.544719395174 0.48557667707 0.0591427181047
7.260000000 0.546947237214 0.487401305458 0.0595459317561
7.278000000 0.549058935879 0.489126265854 0.059932670025
7.296000000 0.551058090635 0.490757106997 0.0603009836381
7.314000000 0.552948412523 0.492299437357 0.0606489751657
7.332000000 0.554733699224 0.493758902609 0.0609747966151
7.350000000 0.55641781144 0.495141168872 0.0612766425675
7.368000000 0.55800465069 0.496451912177 0.0615527385127
7.386000000 0.559498138633 0.497696814687 0.0618013239459
7.404000000 0.560902197939 0.498881568247 0.0620206296925
7.422000000 0.562220734756 0.500011885997 0.0622088487592
7.440000000 0.563457622775 0.501093522988 0.062364099787
7.458000000 0.564616688868 0.502132306989 0.0624843818787
7.476000000 0.56570170028 0.503134181117 0.0625675191629
7.494000000 0.566716353322 0.504105260424 0.062611092898
7.512000000 0.567664263499 0.505051905325 0.0626123581738
7.530000000 0.568548957018 0.505980815775 0.0625681412428
7.548000000 0.569373863592 0.506899151475 0.0624747121173
7.566000000 0.57014231046 0.507814685338 0.0623276251218
7.584000000 0.570857517542 0.508736000173 0.0621215173692
7.602000000 0.571522593639 0.509672742373 0.0618498512658
7.620000000 0.572140533601 0.510635952031 0.0615045815692
7.638000000 0.572714216365 0.511638496984 0.0610757193802
7.656000000 0.573246403794 0.512695650462 0.060550753332
7.674000000 0.573739740227 0.513825870364 0.0599138698629
7.692000000 0.574196752667 0.515051866536 0.0591448861307
7.710000000 0.574619851535 0.516402087192 0.0582177643432
7.728000000 0.575011331923 0.517912827987 0.0570985039358
7.746000000 0.575373375269 0.519631287366 0.0557420879036
7.764000000 0.57570805142 0.521620097177 0.0540879542424
7.782000000 0.576017320994 0.523964220431 0.0520531005635
7.800000000 0.576303038026 0.526781773502 0.0495212645239
7.818000000 0.576566952818 0.53024160242 0.0463253503983
7.836000000 0.576810714978 0.53459299248 0.0422177224971
7.854000000 0.577035876591 0.540218274484 0.0368176021069
7.872000000 0.577243895504 0.547731119909 0.0295127755949
7.890000000 0.577436138677 0.558171678409 0.0192644602677
7.908000000 0.57761388559 0.573418105979 0.00419577961056
7.926000000 0.577778331667 0.597071542114 0.0192932104465
7.944000000 0.577930591713 0.635734279483 0.0578036877706
7.962000000 0.578071703325 0.684639643119 0.106567939794
7.980000000 0.578202630284 0.464878037155 0.113324593129
7.998000000 0.578324265894 0.154707974637 0.423616291258
8.016000000 0.578437436275 0.266754387096 0.311683049179
8.034000000 0.578542903579 0.326715222284 0.251827681295
8.052000000 0.57864136915 0.356990840395 0.221650528755
8.070000000 0.578733476592 0.373372024521 0.205361452071
8.088000000 0.578819814756 0.382030806284 0.196789008473
8.106000000 0.57890092065 0.38562658688 0.193274333769
8.124000000 0.578977282239 0.385320242511 0.193657039728
8.142000000 0.579049341176 0.381480643457 0.197568697719
8.160000000 0.579117495417 0.373916130059 0.205201365358
8.178000000 0.579182101762 0.361866659774 0.217315441988
8.196000000 0.579243478287 0.343781409432 0.235462068854
8.214000000 0.57930190669 0.31675808939 0.2625438173
8.232000000 0.57935763455 0.275288304451 0.304069330099
8.250000000 0.579410877479 0.208682566247 0.370728311231
8.268000000 0.579461821204 0.103759676461 0.475702144743
8.286000000 0.57951062355 0.180853600307 0.398657023243
8.304000000 0.579557416339 0.511075659786 0.0684817565528
8.322000000 0.579602307212 0.708187170934 0.128584863722
8.340000000 0.579645381363 0.723473400279 0.143828018916
8.358000000 0.5796867032 0.695979521385 0.116292818185
8.376000000 0.57972631793 0.668596295668 0.0888699777371
8.394000000 0.579764253067 0.646977320165 0.0672130670976
8.412000000 0.579800519873 0.630435316003 0.0506347961299
8.430000000 0.579835114728 0.617689503997 0.037854389269
8.448000000 0.579868020441 0.607719463608 0.0278514431669
8.466000000 0.579899207485 0.599799280712 0.0199000732267
8.484000000 0.579928635183 0.593421126866 0.0134924916831
8.502000000 0.579956252828 0.588226618379 0.00827036555188
8.520000000 0.57998200075 0.583958722473 0.00397672172333
8.538000000 0.580005811329 0.580429831033 0.000424019703536
8.556000000 0.580027609951 0.577500696724 0.00252691322661
8.574000000 0.580047315919 0.575066398613 0.00498091730639
8.592000000 0.580064843314 0.573046846316 0.00701799699832
8.610000000 0.580080101809 0.571380245575 0.00869985623392
8.628000000 0.580092997437 0.570018526469 0.0100744709682
8.646000000 0.580103433321 0.568924095145 0.0111793381768
8.664000000 0.58011131036 0.568067494126 0.0120438162342
8.682000000 0.58011652787 0.567425697576 0.0126908302945
8.700000000 0.5801189842 0.566980858314 0.0131381258868
8.718000000 0.580118577298 0.566719382155 0.013399195143
8.736000000 0.58011520525 0.566631244084 0.0134839611656
8.754000000 0.580108766782 0.566709486963 0.013399279819
8.772000000 0.580099161732 0.566949861529 0.0131493002036
8.790000000 0.580086291488 0.567350579095 0.0127357123924
8.808000000 0.580070059396 0.567912157555 0.0121579018411
8.826000000 0.580050371145 0.568637348148 0.0114130229968
8.844000000 0.580027135113 0.569531135913 0.0104959992004
8.862000000 0.580000262699 0.570600811304 0.00939945139534
8.880000000 0.579969668619 0.571856114653 0.0081135539658
8.898000000 0.579935271183 0.573309459353 0.00662581183045
8.916000000 0.579896992549 0.574976244205 0.0049207483433
8.934000000 0.579854758946 0.576875270766 0.0029794881807
8.952000000 0.57980850089 0.579029288156 0.000779212734
8.970000000 0.57975815336 0.581465696426 0.0017075430662
8.988000000 0.579703655971 0.584217450939 0.00451379496741
9.006000000 0.579644953117 0.587324225663 0.00767927254662
9.024000000 0.579581994098 0.590833914443 0.0112519203444
9.042000000 0.579514733233 0.59480457859 0.0152898453567
9.060000000 0.579443129949 0.599306990136 0.019863860187
9.078000000 0.579367148857 0.604427977285 0.0250608284276
9.096000000 0.579286759816 0.610274858472 0.0309880986558
9.114000000 0.579201937974 0.616981360984 0.0377794230099
9.132000000 0.579112663801 0.624715564884 0.0456029010836
9.150000000 0.579018923105 0.633690587005 0.0546716638996
9.168000000 0.578920707038 0.644178875787 0.065258168749
9.186000000 0.578818012087 0.656530948022 0.0777129359352
9.204000000 0.57871084005 0.671198588308 0.0924877482581
9.222000000 0.578599198011 0.688759171379 0.110159973368
9.240000000 0.578483098292 0.709926350947 0.131443252655
9.258000000 0.578362558406 0.735495596076 0.15713303767
9.276000000 0.578237600991 0.766055941699 0.187818340708
9.294000000 0.578108253743 0.800931544439 0.222823290696
9.312000000 0.577974549332 0.834765428879 0.256790879547
9.330000000 0.577836525323 0.8483540096 0.270517484277
9.348000000 0.577694224075 0.796288055657 0.218593831583
9.366000000 0.577547692642 0.635748755715 0.0582010630724
9.384000000 0.57739698267 0.412185446591 0.16521153608
9.402000000 0.577242150277 0.21345315916 0.363788991117
9.420000000 0.577083255939 0.0721892199882 0.504894035951
9.438000000 0.576920364367 0.0499144846785 0.527005879688
9.456000000 0.576753544378 0.114619382524 0.462134161854
9.474000000 0.576582868763 0.165228090619 0.411354778144
9.492000000 0.576408414155 0.203261175706 0.373147238449
9.510000000 0.576230260887 0.232233896261 0.343996364626
9.528000000 0.576048492852 0.254599637696 0.321448855156
9.546000000 0.575863197363 0.271996948734 0.303866248629
9.564000000 0.575674465005 0.285522016243 0.290152448762
9.582000000 0.575482389489 0.295907587325 0.279574802164
9.600000000 0.575287067504 0.30363245735 0.271654610153
9.618000000 0.57508859857 0.308985708607 0.266102889963
9.636000000 0.574887084889 0.312100375481 0.262786709408
9.654000000 0.574682631193 0.312963683106 0.261718948088
9.672000000 0.574475344601 0.311405126817 0.263070217784
9.690000000 0.574265334464 0.307057728148 0.267207606316
9.708000000 0.574052712221 0.299279545072 0.274773167149
9.726000000 0.573837591255 0.287008259335 0.28682933192
9.744000000 0.573620086743 0.26849488074 0.305125206002
9.762000000 0.573400315515 0.240814230992 0.332586084523
9.780000000 0.573178395913 0.198995453448 0.374182942465
9.798000000 0.572954447652 0.134932254236 0.438022193416
9.816000000 0.57272859168 0.0480714744436 0.524657117237
9.834000000 0.572500950047 0.143633513214 0.428867436833
9.852000000 0.57227164577 0.341578092333 0.230693553437
9.870000000 0.572040802708 0.505179477229 0.0668613254789
9.888000000 0.571808545431 0.583886098607 0.0120775531751
9.906000000 0.571574999105 0.607612156159 0.0360371570547
9.924000000 0.571340289364 0.610138885414 0.0387985960495
9.942000000 0.571104542203 0.60658414986 0.0354796076578
9.960000000 0.570867883859 0.602249907261 0.0313820234018
9.978000000 0.57063044071 0.598825653053 0.0281952123423
9.996000000 0.570392339166 0.596770887717 0.0263785485511
10.014000000 0.570153705569 0.596140003871 0.0259862983022
10.032000000 0.569914666101 0.596864955676 0.0269502895751
10.050000000 0.569675346687 0.598849318598 0.0291739719108
10.068000000 0.569435872913 0.60199310003 0.0325572271166
10.086000000 0.569196369937 0.606188059801 0.0369916898642
10.104000000 0.568956962411 0.611294387348 0.0423374249362
10.122000000 0.56871777441 0.617096639268 0.0483788648582
10.140000000 0.568478929353 0.623227809816 0.0547488804626
10.158000000 0.568240549943 0.629040833097 0.060800283154
10.176000000 0.568002758101 0.633396917438 0.0653941593365
10.194000000 0.567765674905 0.634340090756 0.0665744158505
10.212000000 0.567529420538 0.6286749761 0.061145555562
10.230000000 0.567294114232 0.611651917311 0.0443578030795
10.248000000 0.567059874223 0.577388307858 0.0103284336348
10.266000000 0.566826817706 0.521019941836 0.0458068758707
10.284000000 0.56659506079 0.44253891309 0.1240561477
10.302000000 0.566364718459 0.349160884041 0.217203834418
10.320000000 0.566135904538 0.252540043992 0.313595860546
10.338000000 0.565908731657 0.163098241778 0.402810489879
10.356000000 0.56568331122 0.0876431739182 0.478040137302
10.374000000 0.565459753372 0.0382574151164 0.527202338255
10.392000000 0.565238166972 0.0540405892034 0.511197577769
10.410000000 0.565018659567 0.0923835884775 0.472635071089
10.428000000 0.564801337361 0.12702781492 0.43777352244
10.446000000 0.564586305192 0.156458846354 0.408127458838
10.464000000 0.564373666507 0.181356583521 0.383017082987
10.482000000 0.564163523332 0.202553380901 0.361610142431
10.500000000 0.563955976249 0.22077507821 0.343180898038
10.518000000 0.563751124367 0.236616948138 0.327134176229
10.536000000 0.563549065298 0.250563334261 0.312985731038
10.554000000 0.563349895125 0.263014067623 0.300335827502
10.572000000 0.563153708371 0.274309885916 0.288843822454
10.590000000 0.56296059797 0.284756526282 0.278204071688
10.608000000 0.562770655235 0.294649864323 0.268120790912
10.626000000 0.56258396982 0.304306555162 0.258277414658
10.644000000 0.562400629685 0.314107682396 0.248292947289
10.662000000 0.562220721059 0.324566824951 0.237653896108
10.680000000 0.562044328398 0.336425647241 0.225618681157
10.698000000 0.561871534347 0.350622553372 0.211248980975
10.716000000 0.561702419694 0.366161012907 0.195541406787
10.734000000 0.561537063328 0.352056233485 0.209480829842
10.752000000 0.561375542192 0.180252860704 0.381122681488
10.770000000 0.561217931242 0.180801050507 0.380416880736
10.788000000 0.561064303396 0.231649419529 0.329414883867
10.806000000 0.560914729488 0.259053355438 0.30186137405
10.824000000 0.560769278228 0.275407863291 0.285361414936
10.842000000 0.560628016149 0.286371533892 0.274256482256
10.860000000 0.560491007568 0.294355288036 0.266135719532
10.878000000 0.560358314542 0.300515840915 0.259842473626
10.896000000 0.560229996827 0.305470527492 0.254759469335
10.914000000 0.560106111839 0.309578042494 0.250528069345
10.932000000 0.559986714618 0.313061405087 0.246925309531
10.950000000 0.559871857795 0.316067087881 0.243804769913
10.968000000 0.559761591563 0.318695723125 0.241065868438
10.986000000 0.559655963649 0.321019095057 0.238636868592
11.004000000 0.559555019292 0.323090056301 0.236464962991
11.022000000 0.559458801224 0.324948581067 0.234510220157
11.040000000 0.559367349657 0.32662560528 0.232741744378
11.058000000 0.559280702271 0.328145545264 0.231135157007
11.076000000 0.559198894205 0.329527998335 0.22967089587
11.094000000 0.559121958063 0.33078892051 0.228333037553
11.112000000 0.559049923909 0.331941460332 0.227108463577
11.130000000 0.558982819276 0.332996560594 0.225986258682
11.148000000 0.558920669178 0.333963399584 0.224957269594
11.166000000 0.558863496122 0.334849718746 0.224013777376
11.184000000 0.55881132013 0.335662068059 0.22314925207
11.202000000 0.558764158755 0.336405990281 0.222358168475
11.220000000 0.558722027114 0.337086158425 0.221635868689
11.238000000 0.558684937908 0.337706476152 0.220978461756
11.256000000 0.558652901458 0.338270147363 0.220382754095
11.274000000 0.558625925736 0.338779718643 0.219846207093
11.292000000 0.558604016405 0.339237095978 0.219366920426
11.310000000 0.558587176848 0.339643534982 0.218943641866
11.328000000 0.558575408215 0.339999601491 0.218575806725
11.346000000 0.558568709461 0.340305096362 0.2182636131
11.364000000 0.558567077386 0.34055893416 0.218008143226
11.382000000 0.558570506678 0.340758959288 0.217811547391
11.400000000 0.558578989957 0.340901673584 0.217677316373
11.418000000 0.558592517818 0.340981834068 0.21761068375
11.436000000 0.558611078873 0.340991853798 0.217619225075
11.454000000 0.558634659795 0.340920894327 0.217713765468
11.472000000 0.558663245364 0.340753458156 0.217909787207
11.490000000 0.558696818503 0.340467139217 0.218229679286
11.508000000 0.558735360327 0.34002889317 0.218706467158
11.526000000 0.558778850182 0.339388571708 0.219390278474
11.544000000 0.558827265683 0.338467089136 0.220360176547
11.562000000 0.558880582758 0.337133269106 0.221747313652
11.580000000 0.558938775686 0.33515458106 0.223784194626
11.598000000 0.559001817133 0.33208036823 0.226921448903
11.616000000 0.55906967819 0.326922288041 0.232147390148
11.634000000 0.55914232841 0.317088597361 0.242053731049
11.652000000 0.559219735844 0.293753124198 0.265466611646
11.670000000 0.559301867071 0.226750640311 0.33255122676
11.688000000 0.559388687233 0.337188851304 0.222199835929
11.706000000 0.559480160069 0.372805028258 0.186675131811
11.724000000 0.559576247942 0.370320749363 0.18925549858
11.742000000 0.559676911873 0.367104439826 0.192572472047
11.760000000 0.559782111565 0.364828034439 0.194954077125
11.778000000 0.559891805435 0.363280036275 0.19661176916
11.796000000 0.56000595064 0.362228470623 0.197777480017
11.814000000 0.560124503104 0.361520378766 0.198604124338
11.832000000 0.560247417543 0.361057972158 0.199189445385
11.850000000 0.560374647488 0.360776315486 0.199598332002
11.868000000 0.560506145314 0.360629181605 0.199876963709
11.886000000 0.56064186226 0.360580023233 0.200061839027
11.904000000 0.560781748451 0.360595465589 0.200186282862
11.922000000 0.560925752925 0.360639567482 0.200286185443
11.940000000 0.561073823651 0.360667463806 0.200406359845
11.958000000 0.561225907554 0.360616919685 0.200608987869
11.976000000 0.561381950534 0.36039579303 0.200986157503
11.994000000 0.561541897485 0.35986227766 0.201679619825
12.012000000 0.561705692322 0.358792783965 0.202912908357
12.030000000 0.561873277995 0.356828984021 0.205044293974
12.048000000 0.562044596513 0.353390692634 0.208653903879
12.066000000 0.562219588963 0.347536436339 0.214683152625
12.084000000 0.56239819553 0.33775762307 0.22464057246
12.102000000 0.562580355515 0.321736523686 0.24084383183
12.120000000 0.562766007358 0.296260663101 0.266505344257
12.138000000 0.562955088656 0.257844864263 0.305110224394
12.156000000 0.563147536183 0.204832439454 0.358315096729
12.174000000 0.563343285907 0.140491894959 0.422851390948
12.192000000 0.563542273016 0.0742554401498 0.489286832866
12.210000000 0.563744431931 0.0293148314178 0.534429600513
